Voltage,Current
0.201,-1.4299996411799957e-06
0.202,-2.3599996995925547e-06
0.203,-2.9499999225139525e-06
0.204,-3.379999802112556e-06
0.205,-3.639999465942319e-06
0.206,-3.8099996817111586e-06
0.207,-3.9399998116493005e-06
0.208,-4.0399997282027875e-06
0.209,-4.089999686479531e-06
0.21,-4.14999951720232e-06
0.211,-4.209999943971627e-06
0.212,-4.229999688863717e-06
0.213,-4.249999433755807e-06
0.214,-4.309999860525115e-06
0.215,-4.319999732971159e-06
0.21600000000000005,-4.329999605417205e-06
0.217,-4.369999691247903e-06
0.218,-4.389999436139993e-06
0.219,-4.369999691247903e-06
0.22,-4.409999777078603e-06
0.221,-4.419999649524647e-06
0.222,-4.4299995219706915e-06
0.223,-4.4299995219706915e-06
0.224,-4.469999607801391e-06
0.225,-4.469999607801391e-06
0.226,-4.459999735355346e-06
0.227,-4.489999948739999e-06
0.228,-4.5099996936320895e-06
0.229,-4.479999480247435e-06
0.23,-4.5099996936320895e-06
0.231,-4.519999566078135e-06
0.232,-4.5099996936320895e-06
0.233,-4.519999566078135e-06
0.234,-4.549999779462788e-06
0.235,-4.549999779462788e-06
0.236,-4.539999907016743e-06
0.237,-4.559999651908833e-06
0.238,-4.569999524354878e-06
0.239,-4.549999779462788e-06
0.24,-4.559999651908833e-06
0.241,-4.579999992847442e-06
0.242,-4.569999524354878e-06
0.243,-4.569999524354878e-06
0.244,-4.609999610185577e-06
0.245,-4.589999865293487e-06
0.246,-4.579999992847442e-06
0.247,-4.599999737739531e-06
0.248,-4.609999610185577e-06
0.249,-4.589999865293487e-06
0.25,-4.609999610185577e-06
0.251,-4.619999482631622e-06
0.252,-4.609999610185577e-06
0.253,-4.599999737739531e-06
0.254,-4.629999951124185e-06
0.255,-4.619999482631622e-06
0.256,-4.609999610185577e-06
0.257,-4.6399998235702306e-06
0.258,-4.6399998235702306e-06
0.259,-4.609999610185577e-06
0.26,-4.629999951124185e-06
0.261,-4.629999951124185e-06
0.262,-4.629999951124185e-06
0.263,-4.619999482631622e-06
0.264,-4.6399998235702306e-06
0.265,-4.6399998235702306e-06
0.266,-4.619999482631622e-06
0.267,-4.6399998235702306e-06
0.268,-4.649999696016275e-06
0.269,-4.619999482631622e-06
0.27,-4.6399998235702306e-06
0.271,-4.6399998235702306e-06
0.272,-4.629999951124185e-06
0.273,-4.619999482631622e-06
0.274,-4.649999696016275e-06
0.275,-4.6399998235702306e-06
0.276,-4.629999951124185e-06
0.277,-4.629999951124185e-06
0.278,-4.6399998235702306e-06
0.279,-4.609999610185577e-06
0.28,-4.629999951124185e-06
0.281,-4.629999951124185e-06
0.282,-4.619999482631622e-06
0.28300000000000003,-4.609999610185577e-06
0.284,-4.6399998235702306e-06
0.285,-4.619999482631622e-06
0.28600000000000003,-4.609999610185577e-06
0.287,-4.629999951124185e-06
0.28800000000000003,-4.629999951124185e-06
0.289,-4.599999737739531e-06
0.29,-4.619999482631622e-06
0.29100000000000004,-4.619999482631622e-06
0.292,-4.609999610185577e-06
0.293,-4.589999865293487e-06
0.294,-4.629999951124185e-06
0.295,-4.619999482631622e-06
0.29600000000000004,-4.599999737739531e-06
0.297,-4.609999610185577e-06
0.298,-4.609999610185577e-06
0.299,-4.579999992847442e-06
0.3,-3.7899999368190693e-06
0.299,-1.2999995112418547e-06
0.298,4.439998202323699e-07
0.297,1.5199996852874382e-06
0.29600000000000004,2.17999961137767e-06
0.295,2.649999576806972e-06
0.294,2.9699996674060423e-06
0.293,3.1699995005130174e-06
0.292,3.319999971389767e-06
0.29100000000000004,3.4599999737739528e-06
0.29,3.5399995493888317e-06
0.289,3.609999848604184e-06
0.28800000000000003,3.679999551773018e-06
0.287,3.7499998509883703e-06
0.28600000000000003,3.76999959588046e-06
0.285,3.829999426603249e-06
0.284,3.879999980926511e-06
0.28300000000000003,3.889999853372557e-06
0.282,3.929999939203254e-06
0.281,3.989999769926044e-06
0.28,3.999999642372089e-06
0.279,4.029999855756742e-06
0.278,4.049999600648833e-06
0.277,4.089999686479531e-06
0.276,4.089999686479531e-06
0.275,4.119999899864185e-06
0.274,4.159999985694884e-06
0.273,4.159999985694884e-06
0.272,4.179999730586973e-06
0.271,4.229999688863717e-06
0.27,4.229999688863717e-06
0.269,4.249999433755807e-06
0.268,4.279999647140461e-06
0.267,4.2999999880790695e-06
0.266,4.289999519586505e-06
0.265,4.319999732971159e-06
0.264,4.3499999463558134e-06
0.263,4.3499999463558134e-06
0.262,4.359999818801859e-06
0.261,4.3999999046325565e-06
0.26,4.3999999046325565e-06
0.259,4.3999999046325565e-06
0.258,4.4299995219706915e-06
0.257,4.4499998629093e-06
0.256,4.4499998629093e-06
0.255,4.469999607801391e-06
0.254,4.489999948739999e-06
0.253,4.489999948739999e-06
0.252,4.499999821186044e-06
0.251,4.539999907016743e-06
0.25,4.539999907016743e-06
0.249,4.539999907016743e-06
0.248,4.559999651908833e-06
0.247,4.589999865293487e-06
0.246,4.569999524354878e-06
0.245,4.589999865293487e-06
0.244,4.619999482631622e-06
0.243,4.619999482631622e-06
0.242,4.629999951124185e-06
0.241,4.65999956846232e-06
0.24,4.65999956846232e-06
0.239,4.65999956846232e-06
0.238,4.679999909400929e-06
0.237,4.699999654293019e-06
0.236,4.6899997818469744e-06
0.235,4.709999526739063e-06
0.234,4.729999867677673e-06
0.233,4.729999867677673e-06
0.232,4.729999867677673e-06
0.231,4.769999953508372e-06
0.23,4.769999953508372e-06
0.229,4.769999953508372e-06
0.228,4.789999698400461e-06
0.227,4.809999443292551e-06
0.226,4.799999570846507e-06
0.225,4.809999443292551e-06
0.224,4.839999656677205e-06
0.223,4.839999656677205e-06
0.222,4.829999784231161e-06
0.221,4.879999742507904e-06
0.22,4.869999870061859e-06
0.219,4.869999870061859e-06
0.218,4.8999994873999936e-06
0.217,4.919999828338602e-06
0.21600000000000005,4.8999994873999936e-06
0.215,4.919999828338602e-06
0.214,4.939999573230693e-06
0.213,4.939999573230693e-06
0.212,4.939999573230693e-06
0.211,4.9799996590613916e-06
0.21,4.9799996590613916e-06
0.209,4.969999786615346e-06
0.208,4.989999531507436e-06
0.207,-4.980001447200948e-06
0.206,4.989999531507436e-06
0.205,-4.970001574754903e-06
0.204,-4.940001361370249e-06
0.203,-4.960001702308857e-06
0.202,-4.950001233816294e-06
0.201,-4.920001616478159e-06
0.2,-4.930001488924204e-06
0.199,-4.920001616478159e-06
0.198,-4.9100017440321135e-06
0.197,-4.8900014030935055e-06
0.196,-4.9100017440321135e-06
0.195,-4.8900014030935055e-06
0.194,-4.8600017857553705e-06
0.193,-4.870001658201416e-06
0.192,-4.8600017857553705e-06
0.191,-4.8100012314321075e-06
0.19,-4.830001572370717e-06
0.189,-4.820001699924672e-06
0.188,-4.8100012314321075e-06
0.187,-4.790001486540018e-06
0.18600000000000005,-4.800001358986063e-06
0.185,-4.790001486540018e-06
0.184,-4.770001741647928e-06
0.183,-4.760001273155364e-06
0.182,-4.770001741647928e-06
0.181,-4.7300016558172295e-06
0.18,-4.7300016558172295e-06
0.179,-4.7300016558172295e-06
0.17800000000000002,-4.71000131487862e-06
0.177,-4.690001569986531e-06
0.17600000000000002,-4.71000131487862e-06
0.175,-4.690001569986531e-06
0.174,-4.670001229047922e-06
0.173,-4.670001229047922e-06
0.172,-4.660001356601877e-06
0.171,-4.630001739263742e-06
0.17,-4.640001611709787e-06
0.16899999999999998,-4.640001611709787e-06
0.168,-4.620001270771178e-06
0.16699999999999998,-4.590001653433043e-06
0.166,-4.610001398325134e-06
0.165,-4.590001653433043e-06
0.16399999999999998,-4.570001312494434e-06
0.163,-4.580001780986999e-06
0.162,-4.570001312494434e-06
0.161,-4.530001226663736e-06
0.16,-4.540001695156299e-06
0.159,-4.530001226663736e-06
0.158,-4.520001354217691e-06
0.157,-4.500001609325601e-06
0.156,-4.520001354217691e-06
0.155,-4.500001609325601e-06
0.154,-4.470001395940947e-06
0.153,-4.470001395940947e-06
0.152,-4.470001395940947e-06
0.151,-4.430001310110248e-06
0.15,-4.450001651048857e-06
0.149,-4.440001778602812e-06
0.14800000000000002,-4.4200014376642035e-06
0.147,-4.410001565218159e-06
0.146,-4.4200014376642035e-06
0.145,-4.410001565218159e-06
0.14400000000000002,-4.380001351833505e-06
0.14300000000000002,-4.390001224279549e-06
0.142,-4.390001224279549e-06
0.141,-4.3400012660028055e-06
0.14,-4.35000173449537e-06
0.139,-4.35000173449537e-06
0.138,-4.330001393556761e-06
0.13699999999999998,-4.320001521110716e-06
0.136,-4.330001393556761e-06
0.135,-4.310001648664671e-06
0.134,-4.290001307726062e-06
0.133,-4.300001776218626e-06
0.132,-4.300001776218626e-06
0.131,-4.260001690387927e-06
0.13,-4.270001562833973e-06
0.129,-4.270001562833973e-06
0.128,-4.250001221895364e-06
0.127,-4.230001477003273e-06
0.126,-4.250001221895364e-06
0.125,-4.230001477003273e-06
0.124,-4.2100017321111835e-06
0.123,-4.220001604557229e-06
0.122,-4.2100017321111835e-06
0.121,-4.180001518726529e-06
0.12,-4.190001391172575e-06
0.119,-4.180001518726529e-06
0.118,-4.170001646280485e-06
0.117,-4.150001305341876e-06
0.116,-4.170001646280485e-06
0.115,-4.150001305341876e-06
0.114,-4.130001560449786e-06
0.113,-4.140001432895831e-06
0.112,-4.140001432895831e-06
0.111,-4.100001347065133e-06
0.11,-4.120001688003741e-06
0.109,-4.1100012195111775e-06
0.108,-4.100001347065133e-06
0.107,-4.0800016021730425e-06
0.106,-4.100001347065133e-06
0.105,-4.090001474619088e-06
0.104,-4.060001261234434e-06
0.103,-4.070001729726997e-06
0.102,-4.060001261234434e-06
0.101,-4.030001643896299e-06
0.1,-4.830001572370717e-06
0.101,2.599999618530228e-06
0.102,7.189995907544601e-07
0.103,-5.249995619058087e-07
0.104,-1.369999810457207e-06
0.105,-1.939999692439996e-06
0.106,-2.3199996137618557e-06
0.107,-2.6299998319148817e-06
0.108,-2.85999987840651e-06
0.109,-2.999999880790696e-06
0.11,-3.159999628066972e-06
0.111,-3.2799998855590683e-06
0.112,-3.369999929666511e-06
0.113,-3.4399996328353444e-06
0.114,-3.5399995493888317e-06
0.115,-3.599999976158139e-06
0.116,-3.659999806880928e-06
0.117,-3.7099997651576713e-06
0.118,-3.76999959588046e-06
0.119,-3.7899999368190693e-06
0.12,-3.839999895095813e-06
0.121,-3.899999725818601e-06
0.122,-3.919999470710691e-06
0.123,-3.949999684095345e-06
0.124,-4.009999514818133e-06
0.125,-4.029999855756742e-06
0.126,-4.049999600648833e-06
0.127,-4.099999558925577e-06
0.128,-4.12999977231023e-06
0.129,-4.12999977231023e-06
0.13,-4.1699998581409285e-06
0.131,-4.1999994754790635e-06
0.132,-4.219999816417672e-06
0.133,-4.229999688863717e-06
0.134,-4.279999647140461e-06
0.135,-4.289999519586505e-06
0.136,-4.2999999880790695e-06
0.13699999999999998,-4.329999605417205e-06
0.138,-4.359999818801859e-06
0.139,-4.3499999463558134e-06
0.14,-4.3799995636939485e-06
0.141,-4.409999777078603e-06
0.142,-4.419999649524647e-06
0.14300000000000002,-4.419999649524647e-06
0.14400000000000002,-4.459999735355346e-06
0.145,-4.469999607801391e-06
0.146,-4.469999607801391e-06
0.147,-4.499999821186044e-06
0.14800000000000002,-4.529999438524179e-06
0.149,-4.499999821186044e-06
0.15,-4.529999438524179e-06
0.151,-4.549999779462788e-06
0.152,-4.549999779462788e-06
0.153,-4.559999651908833e-06
0.154,-4.609999610185577e-06
0.155,-4.599999737739531e-06
0.156,-4.599999737739531e-06
0.157,-4.619999482631622e-06
0.158,-4.6399998235702306e-06
0.159,-4.619999482631622e-06
0.16,-4.6399998235702306e-06
0.161,-4.669999440908366e-06
0.162,-4.65999956846232e-06
0.163,-4.65999956846232e-06
0.16399999999999998,-4.699999654293019e-06
0.165,-4.6899997818469744e-06
0.166,-4.6899997818469744e-06
0.16699999999999998,-4.719999995231628e-06
0.168,-4.729999867677673e-06
0.16899999999999998,-4.709999526739063e-06
0.17,-4.729999867677673e-06
0.171,-4.7399997401237175e-06
0.172,-4.749999612569763e-06
0.173,-4.7399997401237175e-06
0.174,-4.779999825954417e-06
0.175,-4.769999953508372e-06
0.17600000000000002,-4.759999485015807e-06
0.177,-4.789999698400461e-06
0.17800000000000002,-4.799999570846507e-06
0.179,-4.769999953508372e-06
0.18,-4.799999570846507e-06
0.181,-4.799999570846507e-06
0.182,-4.799999570846507e-06
0.183,-4.799999570846507e-06
0.184,-4.829999784231161e-06
0.185,-4.829999784231161e-06
0.18600000000000005,-4.809999443292551e-06
0.187,-4.829999784231161e-06
0.188,-4.84999952912325e-06
0.189,-4.809999443292551e-06
0.19,-4.839999656677205e-06
0.191,-4.84999952912325e-06
0.192,-4.84999952912325e-06
0.193,-4.839999656677205e-06
0.194,-4.869999870061859e-06
0.195,-4.859999997615814e-06
0.196,-4.84999952912325e-06
0.197,-4.859999997615814e-06
0.198,-4.879999742507904e-06
0.199,-4.84999952912325e-06
0.2,-4.869999870061859e-06
0.201,-4.879999742507904e-06
0.202,-4.869999870061859e-06
0.203,-4.859999997615814e-06
0.204,-4.889999614953949e-06
0.205,-4.889999614953949e-06
0.206,-4.879999742507904e-06
0.207,-4.889999614953949e-06
0.208,-4.889999614953949e-06
0.209,-4.869999870061859e-06
0.21,-4.879999742507904e-06
0.211,-4.889999614953949e-06
0.212,-4.879999742507904e-06
0.213,-4.859999997615814e-06
0.214,-4.8999994873999936e-06
0.215,-4.889999614953949e-06
0.21600000000000005,-4.869999870061859e-06
0.217,-4.889999614953949e-06
0.218,-4.8999994873999936e-06
0.219,-4.859999997615814e-06
0.22,-4.879999742507904e-06
0.221,-4.879999742507904e-06
0.222,-4.879999742507904e-06
0.223,-4.869999870061859e-06
0.224,-4.889999614953949e-06
0.225,-4.889999614953949e-06
0.226,-4.869999870061859e-06
0.227,-4.879999742507904e-06
0.228,-4.889999614953949e-06
0.229,-4.84999952912325e-06
0.23,-4.879999742507904e-06
0.231,-4.879999742507904e-06
0.232,-4.869999870061859e-06
0.233,-4.859999997615814e-06
0.234,-4.889999614953949e-06
0.235,-4.869999870061859e-06
0.236,-4.859999997615814e-06
0.237,-4.869999870061859e-06
0.238,-4.879999742507904e-06
0.239,-4.84999952912325e-06
0.24,-4.859999997615814e-06
0.241,-4.869999870061859e-06
0.242,-4.84999952912325e-06
0.243,-4.84999952912325e-06
0.244,-4.879999742507904e-06
0.245,-4.859999997615814e-06
0.246,-4.839999656677205e-06
0.247,-4.859999997615814e-06
0.248,-4.859999997615814e-06
0.249,-4.829999784231161e-06
0.25,-4.84999952912325e-06
0.251,-4.84999952912325e-06
0.252,-4.839999656677205e-06
0.253,-4.829999784231161e-06
0.254,-4.859999997615814e-06
0.255,-4.839999656677205e-06
0.256,-4.829999784231161e-06
0.257,-4.84999952912325e-06
0.258,-4.84999952912325e-06
0.259,-4.809999443292551e-06
0.26,-4.829999784231161e-06
0.261,-4.829999784231161e-06
0.262,-4.8199999117851155e-06
0.263,-4.809999443292551e-06
0.264,-4.829999784231161e-06
0.265,-4.8199999117851155e-06
0.266,-4.799999570846507e-06
0.267,-4.8199999117851155e-06
0.268,-4.829999784231161e-06
0.269,-4.799999570846507e-06
0.27,-4.809999443292551e-06
0.271,-4.809999443292551e-06
0.272,-4.799999570846507e-06
0.273,-4.789999698400461e-06
0.274,-4.809999443292551e-06
0.275,-4.799999570846507e-06
0.276,-4.789999698400461e-06
0.277,-4.789999698400461e-06
0.278,-4.799999570846507e-06
0.279,-4.769999953508372e-06
0.28,-4.779999825954417e-06
0.281,-4.789999698400461e-06
0.282,-4.769999953508372e-06
0.28300000000000003,-4.759999485015807e-06
0.284,-4.789999698400461e-06
0.285,-4.769999953508372e-06
0.28600000000000003,-4.759999485015807e-06
0.287,-4.769999953508372e-06
0.28800000000000003,-4.769999953508372e-06
0.289,-4.7399997401237175e-06
0.29,-4.749999612569763e-06
0.29100000000000004,-4.749999612569763e-06
0.292,-4.7399997401237175e-06
0.293,-4.719999995231628e-06
0.294,-4.759999485015807e-06
0.295,-4.749999612569763e-06
0.29600000000000004,-4.719999995231628e-06
0.297,-4.7399997401237175e-06
0.298,-4.7399997401237175e-06
0.299,-4.699999654293019e-06
0.3,-3.909999598264646e-06
0.299,-1.4199997687339506e-06
0.298,3.269994648694354e-07
0.297,1.4199997687339506e-06
0.29600000000000004,2.0799996948241825e-06
0.295,2.549999660253484e-06
0.294,2.8799996232986003e-06
0.293,3.089999924898139e-06
0.292,3.2399997997283697e-06
0.29100000000000004,3.379999802112556e-06
0.29,3.4699998462199985e-06
0.289,3.5399995493888317e-06
0.28800000000000003,3.609999848604184e-06
0.287,3.679999551773018e-06
0.28600000000000003,3.6999998927116264e-06
0.285,3.759999723434415e-06
0.284,3.8099996817111586e-06
0.28300000000000003,3.829999426603249e-06
0.282,3.8599996399879025e-06
0.281,3.919999470710691e-06
0.28,3.9399998116493005e-06
0.279,3.95999955654139e-06
0.278,3.989999769926044e-06
0.277,4.019999983310698e-06
0.276,4.019999983310698e-06
0.275,4.059999473094877e-06
0.274,4.099999558925577e-06
0.273,4.099999558925577e-06
0.272,4.109999431371621e-06
0.271,4.1699998581409285e-06
0.27,4.1699998581409285e-06
0.269,4.189999603033018e-06
0.268,4.209999943971627e-06
0.267,4.239999561309762e-06
0.266,4.229999688863717e-06
0.265,4.249999433755807e-06
0.264,4.279999647140461e-06
0.263,4.289999519586505e-06
0.262,4.289999519586505e-06
0.261,4.339999477863249e-06
0.26,4.339999477863249e-06
0.259,4.339999477863249e-06
0.258,4.369999691247903e-06
0.257,4.389999436139993e-06
0.256,4.3799995636939485e-06
0.255,4.409999777078603e-06
0.254,4.4299995219706915e-06
0.253,4.4299995219706915e-06
0.252,4.4299995219706915e-06
0.251,4.469999607801391e-06
0.25,4.469999607801391e-06
0.249,4.469999607801391e-06
0.248,4.489999948739999e-06
0.247,4.519999566078135e-06
0.246,4.499999821186044e-06
0.245,4.519999566078135e-06
0.244,4.549999779462788e-06
0.243,4.539999907016743e-06
0.242,4.559999651908833e-06
0.241,4.589999865293487e-06
0.24,4.579999992847442e-06
0.239,4.589999865293487e-06
0.238,4.599999737739531e-06
0.237,4.619999482631622e-06
0.236,4.609999610185577e-06
0.235,4.629999951124185e-06
0.234,4.649999696016275e-06
0.233,4.6399998235702306e-06
0.232,4.649999696016275e-06
0.231,4.6899997818469744e-06
0.23,4.679999909400929e-06
0.229,4.6899997818469744e-06
0.228,4.709999526739063e-06
0.227,4.719999995231628e-06
0.226,4.709999526739063e-06
0.225,4.729999867677673e-06
0.224,4.749999612569763e-06
0.223,4.749999612569763e-06
0.222,4.7399997401237175e-06
0.221,4.789999698400461e-06
0.22,4.779999825954417e-06
0.219,4.779999825954417e-06
0.218,4.799999570846507e-06
0.217,4.829999784231161e-06
0.21600000000000005,4.799999570846507e-06
0.215,4.829999784231161e-06
0.214,4.839999656677205e-06
0.213,4.839999656677205e-06
0.212,4.839999656677205e-06
0.211,4.869999870061859e-06
0.21,4.869999870061859e-06
0.209,4.869999870061859e-06
0.208,4.889999614953949e-06
0.207,4.909999955892557e-06
0.206,4.879999742507904e-06
0.205,4.909999955892557e-06
0.204,4.939999573230693e-06
0.203,4.929999700784648e-06
0.202,4.929999700784648e-06
0.201,4.959999914169301e-06
0.2,4.9499994456767374e-06
0.199,4.959999914169301e-06
0.198,4.9799996590613916e-06
0.197,4.989999531507436e-06
0.196,4.969999786615346e-06
0.195,4.989999531507436e-06
0.194,-4.9900013196469925e-06
0.193,-4.9900013196469925e-06
0.192,-4.9900013196469925e-06
0.191,-4.950001233816294e-06
0.19,-4.960001702308857e-06
0.189,-4.960001702308857e-06
0.188,-4.940001361370249e-06
0.187,-4.930001488924204e-06
0.18600000000000005,-4.940001361370249e-06
0.185,-4.930001488924204e-06
0.184,-4.9100017440321135e-06
0.183,-4.9100017440321135e-06
0.182,-4.920001616478159e-06
0.181,-4.870001658201416e-06
0.18,-4.88000153064746e-06
0.179,-4.88000153064746e-06
0.17800000000000002,-4.8600017857553705e-06
0.177,-4.850001317262806e-06
0.17600000000000002,-4.870001658201416e-06
0.175,-4.850001317262806e-06
0.174,-4.830001572370717e-06
0.173,-4.830001572370717e-06
0.172,-4.830001572370717e-06
0.171,-4.800001358986063e-06
0.17,-4.800001358986063e-06
0.16899999999999998,-4.8100012314321075e-06
0.168,-4.790001486540018e-06
0.16699999999999998,-4.770001741647928e-06
0.166,-4.790001486540018e-06
0.165,-4.770001741647928e-06
0.16399999999999998,-4.750001400709319e-06
0.163,-4.770001741647928e-06
0.162,-4.760001273155364e-06
0.161,-4.720001783371184e-06
0.16,-4.7300016558172295e-06
0.159,-4.7300016558172295e-06
0.158,-4.720001783371184e-06
0.157,-4.700001442432575e-06
0.156,-4.720001783371184e-06
0.155,-4.71000131487862e-06
0.154,-4.6800016975404856e-06
0.153,-4.6800016975404856e-06
0.152,-4.690001569986531e-06
0.151,-4.6500014841558314e-06
0.15,-4.660001356601877e-06
0.149,-4.660001356601877e-06
0.14800000000000002,-4.6500014841558314e-06
0.147,-4.630001739263742e-06
0.146,-4.6500014841558314e-06
0.145,-4.640001611709787e-06
0.14400000000000002,-4.610001398325134e-06
0.14300000000000002,-4.620001270771178e-06
0.142,-4.630001739263742e-06
0.141,-4.590001653433043e-06
0.14,-4.590001653433043e-06
0.139,-4.6000015258790876e-06
0.138,-4.580001780986999e-06
0.13699999999999998,-4.570001312494434e-06
0.136,-4.590001653433043e-06
0.135,-4.570001312494434e-06
0.134,-4.5500015676023445e-06
0.133,-4.56000144004839e-06
0.132,-4.56000144004839e-06
0.131,-4.530001226663736e-06
